# Polar angle	Differential absorption probability
0	0.151003889559896
0.0157868977567326	0.150643131480544
0.0315737955134653	0.149566892820123
0.0473606932701979	0.147793110635328
0.0631475910269305	0.145351121040317
0.0789344887836631	0.142280843509734
0.0947213865403958	0.138631683211488
0.110508284297128	0.134461192881023
0.126295182053861	0.12983354384354
0.142082079810594	0.124817861439151
0.157868977567326	0.1194864831395
0.173655875324059	0.113913198062244
0.189442773080792	0.108171524546447
0.205229670837524	0.102333078232424
0.221016568594257	0.0964660770757226
0.236803466350989	0.0906340223557923
0.252590364107722	0.0848945864733285
0.268377261864455	0.0792987296061243
0.284164159621187	0.0738900585055817
0.29995105737792	0.0687044321932774
0.315737955134653	0.0637698113134938
0.331524852891385	0.0591063405947429
0.347311750648118	0.0547266473888136
0.36309864840485	0.0506363336592964
0.378885546161583	0.0468346341218275
0.394672443918316	0.0433152095208736
0.410459341675048	0.0400670412879989
0.426246239431781	0.0370753920969837
0.442033137188514	0.0343227961529536
0.457820034945246	0.0317900434692847
0.473606932701979	0.0294571239317742
0.489393830458711	0.027304099634569
0.505180728215444	0.0253118777668476
0.520967625972177	0.0234628611497654
0.536754523728909	0.0217414592234785
0.552541421485642	0.0201344486528401
0.568328319242375	0.0186311794867467
0.584115216999107	0.0172236296530027
0.59990211475584	0.0159063171549001
0.615689012512572	0.014676085313439
0.631475910269305	0.01353178145241
0.647262808026038	0.0124738532870597
0.66304970578277	0.0115038897602509
0.678836603539503	0.0106241340731512
0.694623501296236	0.00983699617927474
0.710410399052968	0.00914459014700294
0.726197296809701	0.00854831872933969
0.741984194566434	0.00804852346269905
0.757771092323166	0.00764421394713015
0.773557990079899	0.00733288495677748
0.789344887836631	0.00711042500381003
0.805131785593364	0.00697111521445825
0.820918683350097	0.00690771310733095
0.836705581106829	0.00691161226711498
0.852492478863562	0.0069730660914056
0.868279376620295	0.00708146180177832
0.884066274377027	0.00722562974335818
0.89985317213376	0.00739417259662235
0.915640069890493	0.00757579940656566
0.931426967647225	0.00775965019592712
0.947213865403958	0.00793559826384242
0.96300076316069	0.00809451897569401
0.978787660917423	0.00822851582983658
0.994574558674156	0.00833109675890129
1.01036145643089	0.00839729591365076
1.02614835418762	0.00842373851807519
1.04193525194435	0.00840864870968289
1.05772214970109	0.00835180252107652
1.07350904745782	0.00825443024649776
1.08929594521455	0.00811907429529684
1.10508284297128	0.00794941018816573
1.12086974072802	0.00775003953146136
1.13665663848475	0.00752626455206314
1.15244353624148	0.00728385405140835
1.16823043399821	0.00702881043008679
1.18401733175495	0.00676714676164806
1.19980422951168	0.00650468180611324
1.21559112726841	0.00624685943008855
1.23137802502514	0.00599859724562342
1.24716492278188	0.00576416751377061
1.26295182053861	0.00554711160542918
1.27873871829534	0.00535018768844523
1.29452561605208	0.00517534991467249
1.31031251380881	0.00502375628486307
1.32609941156554	0.00489580161068934
1.34188630932227	0.004791171574572
1.35767320707901	0.00470891377913113
1.37346010483574	0.00464752182205808
1.38924700259247	0.00460502875434896
1.4050339003492	0.00457910669840634
1.42082079810594	0.00456716983958941
1.43660769586267	0.00456647839592177
1.4523945936194	0.00457424147201175
1.46818149137613	0.00458771689537601
1.48396838913287	0.0046043062213498
1.4997552868896	0.00462164310272587
1.51554218464633	0.00463767319302737
1.53132908240306	0.00465072373535281
1.5471159801598	0.00465956102752972
1.56290287791653	0.00466343408463272
1.57868977567326	0.00466210306198812
1.59447667343	0.00465585135730818
1.61026357118673	0.00464548076292757
1.62605046894346	0.00463228955644907
1.64183736670019	0.00461803395908409
1.65762426445693	0.00460487391172975
1.67341116221366	0.00459530458027711
1.68919805997039	0.00459207537583591
1.70498495772712	0.00459809854997202
1.72077185548386	0.00461634960419126
1.73655875324059	0.00464976185686974
1.75234565099732	0.00470111757108366
1.76813254875405	0.00477293809974682
1.78391944651079	0.00486737558398213
1.79970634426752	0.00498610887059317
1.81549324202425	0.00513024650260762
1.83128013978099	0.00530023987102037
1.84706703753772	0.00549580986344028
1.86285393529445	0.00571589055589257
1.87864083305118	0.00595859360507981
1.89442773080792	0.00622119694365475
1.91021462856465	0.0065001610998442
1.92600152632138	0.00679117590951579
1.94178842407811	0.00708923954112224
1.95757532183485	0.00738877061826576
1.97336221959158	0.0076837528382316
1.98914911734831	0.00796790991449878
2.00493601510504	0.00823490700801274
2.02072291286178	0.0084785731632122
2.03650981061851	0.00869313774403835
2.05229670837524	0.00887347258172667
2.06808360613197	0.00901533059523604
2.08387050388871	0.00911557109976628
2.09965740164544	0.00917236192477942
2.11544429940217	0.00918534883698203
2.1312311971589	0.00915578359475104
2.14701809491564	0.00908660321357735
2.16280499267237	0.00898245464428193
2.1785918904291	0.00884966099240645
2.19437878818584	0.0086961275679373
2.21016568594257	0.0085311883777286
2.2259525836993	0.00836539608798228
2.24173948145603	0.00821026092120479
2.25752637921277	0.00807794634036445
2.2733132769695	0.0079809316372333
2.28910017472623	0.00793165359883309
2.30488707248296	0.00794214118180026
2.3206739702397	0.00802365847496661
2.33646086799643	0.00818637206347092
2.35224776575316	0.00843905911008685
2.36803466350989	0.0087888719368554
2.38382156126663	0.00924117353970536
2.39960845902336	0.00979945625305613
2.41539535678009	0.0104653527016386
2.43118225453682	0.011238744293644
2.44696915229356	0.0121179679493584
2.46275605005029	0.0131001167153918
2.47854294780702	0.0141814246388577
2.49432984556376	0.0153577210668806
2.51011674332049	0.0166249347193862
2.52590364107722	0.0179796237839296
2.54169053883395	0.0194195052021739
2.55747743659069	0.0209439545092917
2.57326433434742	0.0225544472267186
2.58905123210415	0.0242549139809508
2.60483812986088	0.0260519842118359
2.62062502761762	0.027955097428177
2.63641192537435	0.0299764662604119
2.65219882313108	0.032130881769761
2.66798572088781	0.0344353582704159
2.68377261864455	0.0369086219528909
2.69955951640128	0.0395704545140217
2.71534641415801	0.0424409094835755
2.73113331191474	0.0455394247200051
2.74692020967148	0.0488838594219803
2.76270710742821	0.0524894878282981
2.77849400518494	0.0563679844804925
2.79428090294168	0.0605264374770447
2.81006780069841	0.0649664265711579
2.82585469845514	0.0696832022930871
2.84164159621187	0.0746650005568556
2.85742849396861	0.0798925244785179
2.87321539172534	0.0853386214167749
2.88900228948207	0.0909681785652494
2.9047891872388	0.0967382547969822
2.92057608499554	0.102598459917443
2.93636298275227	0.108491585086463
2.952149880509	0.11435448003671
2.96793677826573	0.120119164028475
2.98372367602247	0.125714148496212
2.9995105737792	0.131065940398535
3.01529747153593	0.136100686785987
3.03108436929266	0.140745913504736
3.0468712670494	0.144932304733258
3.06265816480613	0.148595465658763
3.07844506256286	0.151677608437143
3.0942319603196	0.154129101941748
3.11001885807633	0.155909828854466
3.12580575583306	0.156990299389338
3.14159265358979	0.157352479192483
