# Energy dP/dE
2.3841858186198e-07	0.015264276194471
9.53674272205205e-07	0.0322087034691647
2.14576721604181e-06	0.0522531230307165
3.81469736503441e-06	0.0763383900673191
5.96046437391602e-06	0.104784233308769
8.58306886416722e-06	0.137246041362815
1.16825105595744e-05	0.172776703388011
1.52587889077104e-05	0.209982544685802
1.93119049443762e-05	0.247246585840225
2.3841858186198e-05	0.282981214510363
2.88486478735885e-05	0.315867058446229
3.43322754566689e-05	0.345036980279716
4.02927402449053e-05	0.370172670085812
4.67300412715501e-05	0.391496330702316
5.36441752220405e-05	0.409657401866389
6.10351512114245e-05	0.425533119994609
6.89029644059645e-05	0.439977365974748
7.72476148056605e-05	0.453563639986714
8.60691024105125e-05	0.46637093083494
9.53674272205205e-05	0.477856978788018
0.000105142589235685	0.486850949693347
0.000115394588456005	0.491678628084697
0.000126123424881481	0.490411150961999
0.000137329098512113	0.481205356097375
0.000149011609347901	0.46268571982538
0.000161170957388845	0.434304717032128
0.000173807142634944	0.396617108160317
0.0001869201650862	0.351410588245439
0.000200510024742612	0.301654153628805
0.00021457672160418	0.251251439778935
0.000229120255670904	0.204617341108943
0.000244140626942785	0.166126735335889
0.000259637835419821	0.139509372909638
0.000275611881102013	0.127281177879669
0.00029206276398936	0.130304087376407
0.000308990484081864	0.147554334432976
0.000326395041379524	0.176152418945121
0.00034427643588234	0.211670401081809
0.000362634667590312	0.248688865819937
0.000381469736503441	0.28153373995699
0.000400781642621725	0.305089100527465
0.000420570385945165	0.315562734126401
0.00044083596647376	0.311081126747795
0.000461578384207513	0.292010799705218
0.000482797608072392	0.260942344728973
0.000504493699525922	0.222325191415252
0.000526666628184608	0.181799365525846
0.00054931639404845	0.145322815183679
0.000572442997117448	0.118231335950104
0.000596046437391602	0.104384866445673
0.000620126714870912	0.105544234138275
0.000644683829555378	0.12108708049989
0.000669717781445	0.14811591125964
0.000695228570539778	0.181944134868463
0.000721216196839712	0.216879521265618
0.000747680660344802	0.247171428099689
0.000774621961055048	0.26795801949728
0.00080204009897045	0.276049648609745
0.000829935074091008	0.27041429340137
0.000858306886416722	0.252285803037216
0.000887155535947592	0.224884985698556
0.000916481022683618	0.192813861973576
0.0009462833466248	0.161241099529752
0.000976562507771138	0.135030331231842
0.00100731850612263	0.117966680790103
0.00103855134167928	0.112210511646651
0.00107026101444109	0.118057430852315
0.00110244752440805	0.134021774962693
0.00113511087158017	0.157199988826572
0.00116825105595744	0.183823940440595
0.00120186807753987	0.209890354332656
0.00123596193632746	0.231754551246572
0.0012705326323202	0.246600972123104
0.00130558011441858	0.252740986441361
0.0013411044841311	0.249729188038805
0.00137710569104878	0.238321639362049
0.00141358373517161	0.220317019362017
0.0014505386164996	0.198321920267908
0.00148797033503274	0.175469289617257
0.00152587889077104	0.155102313821941
0.0015642642837145	0.140424856548979
0.00160312651386311	0.134120603343681
0.00164246558121688	0.137959176635097
0.0016822814857758	0.152433934648144
0.00172257422753988	0.176502951073548
0.00176334380650912	0.207518655245544
0.00180459022268351	0.241421818251017
0.00184631347606306	0.273236432586122
0.00188851356664776	0.297837144190235
0.00193119049443762	0.31088451199588
0.00197434425943264	0.309755318839016
0.00201797486163281	0.294258438567638
0.00206208230103814	0.266938619894486
0.00210666657764862	0.232836984088256
0.00215172769146426	0.19868893006932
0.00219726564248506	0.171674829955383
0.00224328043071101	0.157961351941855
0.00228977205614212	0.161348711365322
0.00233674051877838	0.182344004701021
0.0023841858186198	0.217904685507669
0.00243210795566638	0.261951788394348
0.00248050692991811	0.30657206627649
0.00252938267025	0.343656857711538
0.00257873531822151	0.366609565272862
0.00262856480339818	0.371726346856846
0.00267887112578	0.35892756508668
0.00272965428536698	0.331674475363869
0.00278091428215911	0.296106491733426
0.0028326511161564	0.259626319880959
0.00288486478735885	0.229290795136402
0.00293755529576645	0.21039879693285
0.00299072264137921	0.205596685598342
0.00304436682419712	0.214666999991998
0.00309848784422019	0.234975395041019
0.00315308570144842	0.262378763643583
0.0032081603958818	0.292295439463808
0.00326371192752034	0.320632551799298
0.00331974029636403	0.34435340896151
0.00337624550241288	0.361615797868587
0.00343322754566689	0.371567670929527
0.00349068642612605	0.373996458647381
0.00354862214379037	0.369054286129507
0.00360703469865984	0.357216078875847
0.00366592409073447	0.339496525168562
0.00372529032001426	0.317805017783164
0.0037851333864992	0.295214274120608
0.0038454532901893	0.275903566928357
0.00390625003108455	0.264626157919914
0.00396752360918496	0.265720594691466
0.00402927402449053	0.281879646786056
0.00409150127700125	0.31303884610579
0.00415420536671713	0.355785560390923
0.00421738620179714	0.403591308201752
0.0042810439652328	0.447949948246946
0.00434517856587361	0.480225572422607
0.00440979000371958	0.493764592915324
0.0044748782787707	0.485694328200015
0.00454044339102699	0.457870194813059
0.00460648534048842	0.41664643482449
0.00467300412715501	0.3714742058763
0.00473999975102676	0.332674788760001
0.00480747221210366	0.308985488471279
0.00487542151038573	0.305546418753671
0.00494384764587294	0.322863292040291
0.00501275111920245	0.356984546459346
0.0050821305292808	0.40076938700586
0.00515198677104005	0.44581534024798
0.00522232086647045	0.484457557115826
0.0052931307784968	0.511293813138804
0.00536441752220405	0.523900596021484
0.00543618214029845	0.522699607072253
0.0055084225542728	0.5102043906295
0.005581140856445	0.49002647779855
0.00565433494068645	0.466007762707845
0.0057280058566088	0.441702965220416
0.005802154681445	0.42022776383059
0.00587677926763445	0.404318374981255
0.00595188177654845	0.396378783804443
0.006027460033005	0.39834206767338
0.00610351512114245	0.411310198008193
0.00618004815272045	0.435083890021482
0.006257056911125	0.4677886528152
0.0063345436267808	0.505801476377288
0.00641250605545245	0.544093114393761
0.006490945315805	0.57697154337335
0.0065698625541248	0.599090389933168
0.00664925548474445	0.606517346018556
0.00672912640714205	0.597645517664263
0.0068094730080288	0.573757325131224
0.00689029644059645	0.539100265649505
0.00697159788565805	0.500388904651709
0.0070533749884928	0.4657284359376
0.0071356301176322	0.443071058514976
0.00721836089073405	0.438463825496232
0.0073015684955168	0.454488564621144
0.0073852541473202	0.489351842798178
0.00746941542237005	0.536995865842553
0.00755405475825125	0.588346296856955
0.0076391697035682	0.633451021095102
0.00772476148056605	0.663931064848803
0.00781083133911125	0.6750034019366
0.0078973767863762	0.66644842789621
0.0079844003289992	0.642256658119328
0.00807189944653125	0.6091612126545
0.0081598753957442	0.574648798432794
0.0082483294610312	0.545163943254796
0.00833725908051125	0.525042809444025
0.00842666682987605	0.516326938797873
0.0085165501196232	0.519214255458768
0.00860691024105125	0.5326999288436
0.00869774851308005	0.555016912093631
0.0087890623047752	0.583745800702232
0.0088808542608818	0.615747312209804
0.00897312172284405	0.647205672996822
0.0090658660164872	0.673993935001816
0.0091590884952578	0.692344388157686
0.00925278645916805	0.69959701390035
0.00934696262201645	0.694740445785111
0.0094416142561938	0.678580675189896
0.00953674272205205	0.653578865568714
0.00963234940756445	0.62352798979079
0.0097284315436898	0.593203411776998
0.00982499191328	0.56795804774768
0.00992202771967245	0.553090876567293
0.0100195403577458	0.552854865275384
0.01011753125	0.569211099
0.0102159975583405	0.6007518888893
0.0103149406983618	0.642371085818034
0.01041436211328	0.68608719257184
0.0105142589235684	0.722955305891808
0.0106146340225645	0.74546920681591
0.01071548450312	0.74956563937244
0.0108168118153564	0.735494118661863
0.0109186174370165	0.707330084707806
0.01102089841952	0.67150583015912
0.0111236577252578	0.635069788275296
0.0112268923780284	0.604301181700008
0.01133060386248	0.58392155804052
0.0114347936908818	0.57674832079689
0.0115394588456004	0.583504899758245
0.01164460235808	0.602676684061412
0.0117502211830658	0.630582230857748
0.0118563168397325	0.661935737821137
0.011962890874876	0.690970461396036
0.0120699402018098	0.712810064787646
0.0121774679210312	0.724520196600992
0.0122854709182321	0.725380629711199
0.0123939507471138	0.716365805321076
0.0125029089889992	0.699293770421328
0.0126123424881481	0.676257265026474
0.0127222544141112	0.649649749372305
0.0128326415835272	0.62255956695654
0.012943505584624	0.598944951446124
0.0130548480332513	0.583105614263355
0.0131666657046152	0.578483493260424
0.0132789618373202	0.58636852546006
0.0133917331789513	0.60523848277327
0.0135049813522632	0.631109106865044
0.0136187080076322	0.658669811984646
0.0137329098512112	0.682588293434005
0.0138475901906581	0.698448274938329
0.0139627457045042	0.703214029906966
0.0140783780500312	0.695495615141175
0.014194488912142	0.675881814513768
0.0143110749279362	0.647250492364784
0.0144281394741248	0.614625004440576
0.014545679160186	0.584201746096211
0.0146636956779282	0.561672762352932
0.0147821907467808	0.550529943941208
0.01490116093479	0.551187072587934
0.0150206096877204	0.561316301476513
0.0151405335459968	0.577071190615616
0.0152609342359541	0.594413680640997
0.0153818135115484	0.609901943810901
0.0155031678717728	0.620866223917064
0.015625000831445	0.62538342656476
0.0157473088619365	0.622451313244065
0.0158700937241088	0.612335454325056
0.015993357206445	0.59667135554727
0.0161170957388845	0.577978241965423
0.0162413129052985	0.558737270373335
0.016366005108005	0.54063378262306
0.0164911741423924	0.524498876376834
0.0166168218314705	0.510907784004567
0.016742944536125	0.5008102954391
0.0168695440724604	0.495526616767042
0.0169966222842025	0.4960101501682
0.017124175490805	0.50195787946017
0.0172522073866248	0.511514739514824
0.0173807142634944	0.52182162099353
0.017509697972045	0.52996655578126
0.0176391603905288	0.533656547332552
0.0177690977693464	0.531336467193981
0.017899513871908	0.522092542862313
0.0180304049209928	0.505846556742744
0.0181617728017585	0.483889992481485
0.018293619426984	0.459201662776431
0.0184259409780168	0.435918977238024
0.0185587412873202	0.417959342547786
0.0186920165086201	0.407561992842579
0.0188257685616008	0.404684435494872
0.0189599993935682	0.407538506040908
0.0190947051168161	0.413677899761607
0.0192298896328612	0.42076397753712
0.0193655490263762	0.42666761824545
0.019501685251572	0.429329817003691
0.0196383002902813	0.426998912037825
0.0197753901857442	0.41891250316272
0.0199129589085312	0.405819911911008
0.0200510024742613	0.389714782081385
0.0201895228716722	0.372848706970202
0.0203285221171232	0.356800123955472
0.0204679961848012	0.34232158356915
0.0206079491143301	0.329902669655097
0.0207483768522752	0.32028108354144
0.0208892814219012	0.31425390771222
0.021030664874094	0.311952071214259
0.0211725231139872	0.312369843830232
0.0213148602502578	0.313706656595508
0.021457672160418	0.314244586058021
0.0216009609022592	0.3129649861184
0.0217447285611938	0.309455439274426
0.0218889709733021	0.303458385083445
0.0220336923163144	0.294749109601545
0.0221788883986898	0.283534340398242
0.0223245613127461	0.270836070489617
0.0224707131784225	0.258241847388224
0.0226173397627458	0.247093849314006
0.0227644453125	0.23786063475
0.0229120255670905	0.230288357751732
0.0230600826533618	0.224096466793186
0.02320861872578	0.21940868451866
0.0233576294823185	0.216454829967387
0.0235071192388145	0.214944183434885
0.02365708366562	0.213890092132008
0.0238075249241064	0.212131876537889
0.0239584452032665	0.208995623461346
0.02410984013202	0.204418788681192
0.0242617140952578	0.19854362014124
0.0244140626942785	0.19140892739199
0.02456688812498	0.183168942529366
0.0247201926108818	0.174507081147056
0.0248739717118504	0.166570924700697
0.0250282276445	0.16029853736784
0.0251829626530658	0.155785052311304
0.0253381722559824	0.152373725948738
0.025493860948626	0.149364111173888
0.0256500242218098	0.146555483238314
0.0258066643266745	0.144098168120683
0.0259637835419821	0.141975531289694
0.0261213773171138	0.139829657399602
0.0262794502164992	0.137321518258422
0.0264379976618981	0.134494434431925
0.0265970219389778	0.131630854409227
0.0267565253610272	0.128804912784895
0.0269165033083741	0.125768640921293
0.0270769604145012	0.122367422856767
0.0272378920321152	0.118939740945648
0.02739930048141	0.116121915306416
0.0275611881102013	0.114233510193511
0.0277235502297632	0.112984842136054
0.0278863915426322	0.111864690357309
0.0280497073324613	0.110717852901777
0.0282134999539712	0.10981246440736
0.0283777717895042	0.10938555658217
0.0285425180812812	0.1093146674481
0.0287077436008921	0.109327344257521
0.0288734435629362	0.109391256014009
0.0290396203566613	0.109701234864599
0.029206276398936	0.110293466639247
0.0293734068629282	0.110882734845729
0.0295410165892808	0.111213265804808
0.02970910072354	0.111456909557183
0.0298776616894802	0.112072652201459
0.0300467019384968	0.113267969201382
0.030216216574704	0.114772945921924
0.0303862105077984	0.116232334780725
0.0305566788142728	0.117681871574518
0.0307276239524281	0.119472049789074
0.0308990484081864	0.121777577399424
0.0310709472166088	0.124388664616395
0.031243325356445	0.127042595401578
0.0314161778351344	0.129773497589642
0.0315895071455048	0.132768894426584
0.031763315808005	0.13598535642067
0.0319375987886424	0.139143748776639
0.0321123611352205	0.142139163178183
0.032287597786125	0.145240913242755
0.0324633112687104	0.148739766368628
0.0326395041379525	0.152532516850553
0.032816171290805	0.156266729998113
0.0329933178441248	0.159861460192856
0.0331709386672445	0.163652022323137
0.033349036322045	0.167941166785343
0.0335276133980288	0.172602308819098
0.0337066647230965	0.177293033283792
0.033886195483158	0.181930250284598
0.0340662004784928	0.186715027452838
0.0342466823055085	0.191710817194518
0.034427643588234	0.196663027612798
0.0346090790855168	0.201348619371968
0.0347909940523202	0.205894857803931
0.03497338321987	0.210549680784178
0.0351562492191008	0.215267788910227
0.0353395947085682	0.219797775655154
0.0355234143780661	0.224171259804708
0.0357077108792448	0.22881793633681
0.0358924868913762	0.234061725660904
0.0360777370628221	0.239711317693856
0.0362634667590313	0.245346114869968
0.0364496706007442	0.250857845589057
0.0366363512741381	0.256444060389123
0.0368235114930112	0.262122678960523
0.0370111458366722	0.267570659678552
0.0371992597396232	0.272539282659236
0.0373878477535512	0.27716842086956
0.0375769125991602	0.28171117713879
0.0377664570247752	0.286157461201884
0.0379564755406512	0.29039506787907
0.0381469736503441	0.294616900482289
0.0383379458364872	0.29922314588024
0.0385293948543112	0.30428493144606
0.0387213234866681	0.309409774447398
0.0389137261747592	0.314266511248436
0.0391066084911938	0.318981211464906
0.0392999648495521	0.323808195490619
0.0394937980395912	0.328628237809752
0.0396881108786898	0.333079710920022
0.039882897738996	0.337091049228228
0.0400781642621724	0.340957267897807
0.0402739047927458	0.344885851791866
0.040470122155	0.348788879490285
0.0406668192008404	0.352610398344537
0.0408639902333618	0.356535620571502
0.04106164096328	0.36066185012116
0.0412597656660685	0.364705070174274
0.0414583672005378	0.368316331249824
0.04165744845312	0.37153887152256
0.0418570036578565	0.374648901497521
0.0420570385945164	0.37763741170003
0.04225754746952	0.38021138025148
0.0424585331762045	0.382338217523835
0.0426599986355284	0.384447645960378
0.04286193801248	0.38696846522
0.0430643571558818	0.389946596030526
0.0432672502031004	0.393276108902881
0.043470620082	0.397018040976
0.0436744697480658	0.401216482383864
0.0438787932972324	0.40558802047468
0.0440835966473761	0.409694538296739
0.0442888738668098	0.413323421818624
0.0444946279179244	0.416424124821537
0.0447008617907321	0.418780915325274
0.0449075695121138	0.420120288370036
0.0451147570689992	0.420577816245532
0.0453224184606481	0.4207432305188
0.0455305566839778	0.421160471568432
0.0457391747635272	0.422053248013788
0.045948266657124	0.42361733312251
0.0461578384207512	0.42624014633563
0.0463678839846152	0.430191939058336
0.04657840638016	0.435295471913082
0.0467894086664513	0.441098737753725
0.0470008847322632	0.447192873739688
0.047212837629756	0.453166656569193
0.0474252704387113	0.458459384669315
0.0476381770064712	0.462573291463704
0.0478515634995042	0.465383057682744
0.0480654237375313	0.46704821567865
0.0482797608072392	0.467748456311992
0.0484945778229362	0.467765572471734
0.0487098685629113	0.467739842683455
0.048925639262686	0.468538376293731
0.0491418836729282	0.470824894109724
0.0493586049148513	0.47491904479699
0.04957580613729	0.480988561483672
0.0497934810494802	0.489071188322856
0.0500116359559968	0.498841939888992
0.050230264538454	0.509567525459167
0.0504493699525922	0.520366324099074
0.0506689553817728	0.530407030250448
0.0508890144661781	0.538928118610065
0.0511095535794365	0.54535926365865
0.0513305663341088	0.549579922992416
0.0515520559204621	0.551998946494985
0.0517740255563845	0.553383533197066
0.0519964688130048	0.55471270986432
0.052219392133005	0.5571284259351
0.0524427890598924	0.561769824022021
0.0526666628184608	0.569469090346424
0.052891016661125	0.5805415066808
0.0531158440899604	0.594759334243068
0.0533411516167024	0.61139760308646
0.053566932715805	0.62932407908725
0.0537931906465884	0.647195147276783
0.0540199286959945	0.663717313373933
0.054247140297045	0.67788843609609
0.0544748320305288	0.689188288111092
0.0547029973018465	0.697672926471666
0.054931639404845	0.70394234898869
0.0551607616609928	0.709056711050592
0.0553903574342585	0.714419671497399
0.055620433374484	0.721500882675609
0.0558509828180168	0.731459481997324
0.0560820090932304	0.744983837518096
0.05631351555612	0.762360868176988
0.0565454955016008	0.783410549531724
0.0567779556485682	0.807299758872054
0.0570108892643161	0.83268547644226
0.0572442997117448	0.85815685170768
0.0574781903813762	0.882445107662414
0.0577125544990721	0.904415070891348
0.0579473988527813	0.9232966430298
0.0581827166407442	0.938976566355684
0.0584185112603881	0.951886233740981
0.0586547861367613	0.96282545347759
0.0588915344266722	0.973139560348032
0.0591287629871232	0.984656739220896
0.0593664649473012	0.998997939010475
0.0596046437391602	1.01717009207231
0.0598433028222752	1.03990142787604
0.0600824352844012	1.0676447956755
0.0603220445782082	1.09987081578714
0.0605621341839872	1.13494662630016
0.0608026971480612	1.17094611469067
0.0610437404379181	1.20604779699183
0.0612852570722592	1.23832091586017
0.0615272505382813	1.26611783937087
0.0617697243508021	1.28883005266067
0.0620126714870912	1.30681103997434
0.0622560989836898	1.32106720629387
0.0624999997902461	1.33362891363476
0.0627443774284832	1.34740355566329
0.0629892354477458	1.36487938282308
0.06323456675625	1.38756926435723
0.0634803784595905	1.41670238765436
0.0637266634383618	1.45295122422314
0.063973425248814	1.49515518484788
0.0642206674748184	1.54062104741049
0.0644683829555378	1.58667699548415
0.06471657886562	1.63087699184014
0.0649652480166065	1.67054328074453
0.0652143939992738	1.70371300258269
0.06546402043202	1.73006362258856
0.0657141200849545	1.75031372593674
0.0659647002017784	1.76598985851392
0.06621575352498	1.78001176711392
