# Energy	Aggregated during	Calculated after	Total
0.005	-0.0651370221982842	0.414439721067774	0.34930269886949
0.0075	-0.0786396917235826	0.574643406771043	0.496003715047461
0.01	-0.0443538823937314	0.64332725030328	0.598973367909549
0.0125	0.0212556674930678	0.612237748752805	0.633493416245873
0.015	0.0848295733923634	0.52863514417947	0.613464717571833
0.0175	0.120030689013213	0.411996950566347	0.53202763957956
0.02	0.112921619971485	0.299226707673125	0.41214832764461
0.0225	0.0695452734304977	0.212013828888146	0.281559102318643
0.025	0.0112084466479106	0.171126044166883	0.182334490814794
0.0275	-0.0407748112014049	0.167282522321577	0.126507711120172
0.03	-0.0753466409787982	0.187966163398568	0.11261952241977
0.0325	-0.0925218537246245	0.240760016521113	0.148238162796489
0.035	-0.0987072966608305	0.29604904746545	0.19734175080462
0.0375	-0.10029594579261	0.347536698867664	0.247240753075054
0.04	-0.0991268097093994	0.409023871758738	0.309897062049338
0.0425	-0.0931730411340297	0.449856844470422	0.356683803336393
0.045	-0.0806040382981427	0.481884304165248	0.401280265867105
0.0475	-0.0611858664195694	0.504513210094121	0.443327343674552
0.05	-0.0336845619227025	0.529062841120266	0.495378279197564
0.0525	0.00642814712739157	0.550441110300208	0.556869257427599
0.055	0.0670139084710526	0.584277658675514	0.651291567146567
0.0575	0.158465167311064	0.630145600617245	0.788610767928309
0.06	0.291338076154931	0.689438749124433	0.980776825279364
0.0625	0.471168998554346	0.76574990228662	1.23691890084097
0.065	0.693398408116236	0.844470952683408	1.53786936079964
0.0675	0.942436393945514	0.91831942019153	1.86075581413704
0.07	1.19423095245179	0.979057872650766	2.17328882510256
0.0725	1.41940410117003	1.02040345033152	2.43980755150155
0.075	1.58728156643849	1.03513764262796	2.62241920906645
0.0775	1.67264001846184	1.02316087529521	2.69580089375705
0.08	1.66306070771961	0.983850114042305	2.64691082176192
0.0825	1.56181672055396	0.920755743077257	2.48257246363121
0.085	1.38460438354454	0.840687869449642	2.22529225299419
0.0875	1.15373768881226	0.749361476917504	1.90309916572977
0.09	0.893920088370796	0.655458105574645	1.54937819394544
0.0925	0.63002013221272	0.563611857841775	1.19363199005449
0.095	0.384912869534054	0.479321793298534	0.864234662832588
0.0975	0.176667356721606	0.404831927783723	0.581499284505329
0.1	0.0163157927080956	0.34073518550281	0.357050978210906
0.1025	-0.092548824855211	0.287583250185273	0.195034425330062
0.105	-0.152480293750782	0.243873998866166	0.0913937051153834
0.1075	-0.170219004248267	0.209156035712413	0.0389370314641465
0.11	-0.154912259001584	0.181499466402114	0.0265872074005298
0.1125	-0.116848469784935	0.159419306747337	0.0425708369624015
0.115	-0.0666295222358275	0.141243205089528	0.0746136828537003
0.1175	-0.0144159481820354	0.125864852074779	0.111448903892744
0.12	0.0310602505881465	0.113098364199801	0.144158614787947
0.1225	0.0636469492173404	0.102118559517292	0.165765508734633
0.125	0.0805518335096373	0.092922057840935	0.173473891350572
0.1275	0.0822799116294124	0.0849948367467685	0.167274748376181
0.13	0.0718420000054434	0.0783409078441887	0.150182907849632
0.1325	0.0537811801379428	0.0727981821341999	0.126579362272143
0.135	0.0333927788092882	0.0682143896391282	0.101607168448416
0.1375	0.0160187914771409	0.0643119752954789	0.0803307667726198
0.14	0.00614851760581681	0.0610386045500623	0.0671871221558791
0.1425	0.00646091608010375	0.0580706665609763	0.06453158264108
0.145	0.0173200067948077	0.0552570277400309	0.0725770345348386
0.1475	0.0370675560701795	0.0525846809725442	0.0896522370427237
0.15	0.0628995150115721	0.0499664382017797	0.112865953213352
0.1525	0.0917665818118835	0.0473106740467573	0.139077255858641
0.155	0.12095898126585	0.0446011433589369	0.165560124624787
0.1575	0.148488057545523	0.041925496893339	0.190413554438862
0.16	0.173515433492654	0.039219640746176	0.21273507423883
0.1625	0.196775320720968	0.0366161123529088	0.233391433073876
0.165	0.220605778553128	0.0341932268576561	0.254799005410785
0.1675	0.248300049505781	0.032011824744992	0.280311874250773
0.17	0.282964875229888	0.0300895539708009	0.313054429200689
0.1725	0.326454485308737	0.0284476734114085	0.354902158720146
0.175	0.378858098285593	0.0270133295558381	0.405871427841431
0.1775	0.438569135058268	0.0258363074234008	0.464405442481669
0.18	0.502595037449037	0.0248963919110649	0.527491429360102
0.1825	0.566802198060797	0.0241934873924537	0.59099568545325
0.185	0.62611376647659	0.0236649526886571	0.649778719165247
0.1875	0.674909041973587	0.02325022113963	0.698159263113217
0.19	0.707776416919178	0.0228758904879427	0.730652307407121
0.1925	0.720468715957063	0.0225309702847603	0.742999686241823
0.195	0.710684922251687	0.0221786743866675	0.732863596638355
0.1975	0.67839869940398	0.0218330334826148	0.700231732886595
0.2	0.62571898353864	0.0214424269446106	0.647161410483251
0.2025	0.556486297992848	0.0209971750947871	0.577483473087635
0.205	0.475805134106105	0.0204692104509854	0.49627434455709
0.2075	0.389558693072207	0.0198695241674	0.409428217239607
0.21	0.303841095000755	0.0192214311588286	0.323062526159584
0.2125	0.22428412571033	0.0185468511709612	0.242830976881291
0.215	0.155393114903966	0.0178495495960837	0.17324266450005
0.2175	0.100083793365243	0.0171146201342982	0.117198413499541
0.22	0.059547695262835	0.0163387579531729	0.0758864532160079
0.2225	0.0334189671949619	0.0155404118140693	0.0489593790090313
0.225	0.0201006913471638	0.0147443200896458	0.0348450114368096
0.2275	0.0171242945630954	0.0139777954043968	0.0311020899674922
0.23	0.0215020368664596	0.0132497842252845	0.034751821091744
0.2325	0.0301024605150416	0.0125531084313173	0.042655568946359
0.235	0.0400615191955145	0.0118728216261383	0.0519343408216528
0.2375	0.049151585358952	0.0112175080576374	0.0603690934165893
0.24	0.0559937278112942	0.0105691572804251	0.0665628850917193
0.2425	0.060042055134018	0.00998222682266369	0.0700242819566817
0.245	0.0613885779163442	0.00944033951972118	0.0708289174360654
0.2475	0.0605249595335805	0.00893620974400017	0.0694611692775806
0.25	0.0581888277236299	0.00845918573513936	0.0666480134587692
0.2525	0.0553135472081392	0.00799312708586201	0.0633066742940012
0.255	0.0530000858232441	0.00753171999005685	0.0605318058133009
0.2575	0.0524023666072964	0.00709659258243286	0.0594989591897292
0.26	0.0544997160874694	0.00668199982263909	0.0611817159101085
0.2625	0.0598493307626304	0.00630140779521885	0.0661507385578492
0.265	0.0684655019764332	0.00596096286762764	0.0744264648440608
0.2675	0.0799161544309935	0.00562189868578087	0.0855380531167743
0.27	0.0935958250411951	0.00528863383981919	0.0988844588810143
0.2725	0.109021439293146	0.00495734533682679	0.113978784629973
0.275	0.125981722063188	0.00463804155016891	0.130619763613357
0.2775	0.144468046707231	0.00434348571452217	0.148811532421753
0.28	0.16445384485697	0.00407579660233269	0.168529641459303
0.2825	0.185676932691806	0.00382494258462916	0.189501875276436
0.285	0.207560672288089	0.00358891115954169	0.211149583447631
0.2875	0.229310218852474	0.00335899821500832	0.232669217067482
0.29	0.250101557711081	0.00314228178139589	0.253243839492476
0.2925	0.269233718476472	0.00292632819475925	0.272160046671231
0.295	0.286151508340441	0.0027324977923458	0.288884006132787
0.2975	0.300344962980039	0.00255866498719063	0.302903627967229
0.3	0.311215016035319	0.00240413361169324	0.313619149647012
0.3025	0.318017241433496	0.00226063494553103	0.320277876379027
0.305	0.319940722749184	0.00212440513357829	0.322065127882762
0.3075	0.316295295037583	0.0019896063568754	0.318284901394459
0.31	0.306717922104254	0.00186497016141563	0.30858289226567
0.3125	0.291301293702308	0.00174403139314583	0.293045325095454
0.315	0.270599333467776	0.00163906667816022	0.272238400145936
0.3175	0.24552885880112	0.00155366863749204	0.247082527438612
0.32	0.217230541070131	0.00146878615139812	0.218699327221529
0.3225	0.186951792277125	0.0013896122666402	0.188341404543765
0.325	0.155977093950484	0.00131061052746147	0.157287704477946
0.3275	0.125589243663467	0.00123296268841061	0.126822206351877
0.33	0.0970252008736554	0.00116067209320216	0.0981858729668576
0.3325	0.0713997781016881	0.0010983802536509	0.072498158355339
0.335	0.049603530709944	0.00103983357815827	0.0506433642881023
0.3375	0.0322067789330837	0.000988484115895244	0.0331952630489789
0.34	0.0194076916036368	0.000936109795826723	0.0203438013994635
0.3425	0.0110471374182064	0.000885953257297053	0.0119330906755035
0.345	0.00668028475107345	0.000837130521957191	0.00751741527303064
0.3475	0.005675884456636	0.000787727917227347	0.00646361237386335
0.35	0.00730898995909541	0.000742781386911581	0.00805177134600699
0.3525	0.010828467655824	0.00070419856338677	0.0115326662192108
0.355	0.0155009565088811	0.000669349164803192	0.0161703056736843
0.3575	0.0206468901157562	0.000638628211795321	0.0212855183275515
0.36	0.0256821882624127	0.000607915540193693	0.0262901038026064
0.3625	0.0301679661282027	0.000571468387938749	0.0307394345161415
0.365	0.0338529228631235	0.000538524248538862	0.0343914471116624
0.3675	0.0366911291355596	0.000510635461418709	0.0372017645969783
0.37	0.0388214913252097	0.000482657014538002	0.0393041483397477
0.3725	0.0405133006948865	0.00045623578945507	0.0409695364843416
0.375	0.0420958491409791	0.000433356448341552	0.0425292055893207
0.3775	0.0438956515706291	0.000413142244365839	0.044308793814995
0.38	0.0461975089057342	0.000392398764008101	0.0465899076697424
0.3825	0.0492310054594252	0.000370014123209077	0.0496010195826343
0.385	0.0531707626118894	0.000347997865843179	0.0535187604777326
0.3875	0.058132701592081	0.000326477300128756	0.0584591788922098
0.39	0.0641565174983125	0.000310268625723109	0.0644667861240356
0.3925	0.071176062416498	0.000291367186291138	0.0714674296027891
0.395	0.0789924785685893	0.000275371989404806	0.0792678505579941
0.3975	0.0872687810531231	0.000265597487604966	0.087534378540728
0.4	0.0955569642487842	0.00024432191410406	0.0958012861628883
0.4025	0.103355988448167	0.000233709960081003	0.103589698408248
0.405	0.110184661717846	0.00021762313342949	0.110402284851275
0.4075	0.115645717990495	0.000202564401965996	0.115848282392461
0.41	0.119462916240481	0.000189332598621693	0.119652248839102
0.4125	0.121483427882265	0.000177650930232332	0.121661078812497
0.415	0.121653062938732	0.000165872444390354	0.121818935383123
0.4175	0.119982561450371	0.000156507547481599	0.120139068997853
0.42	0.116522382985433	0.000147916425272758	0.116670299410706
0.4225	0.111358142731766	0.000136968046153496	0.11149511077792
0.425	0.104624706176493	0.000126246587700495	0.104750952764193
0.4275	0.0965275885820342	0.000118181500783186	0.0966457700828174
0.43	0.0873555041500189	0.000107295015259126	0.0874627991652781
0.4325	0.0774725901482486	0.000101288323527264	0.0775738784717759
0.435	0.0672875212017894	9.45802703227533e-05	0.0673821014721122
0.4375	0.0572076876651913	8.90532861953706e-05	0.0572967409513867
0.44	0.047592958597413	8.39236933334675e-05	0.0476768822907465
0.4425	0.038722984440837	7.81508463287029e-05	0.0388011352871657
0.445	0.0307863451315239	7.21849709147745e-05	0.0308585301024387
0.4475	0.0238902816209385	6.84995855277732e-05	0.0239587812064663
0.45	0.0180826887308552	6.22806776838572e-05	0.0181449694085391
0.4525	0.0133743362314986	5.51188306121604e-05	0.0134294550621107
0.455	0.00975218028746271	5.25215612588127e-05	0.00980470184872152
0.4575	0.00718058612495777	4.91103465130585e-05	0.00722969647147083
0.46	0.00559412882715132	4.57580550637965e-05	0.00563988688221512
0.4625	0.00488989725613305	4.17011317396912e-05	0.00493159838787274
0.465	0.0049271506291209	3.87259703594639e-05	0.00496587659948036
0.4675	0.00553860589278019	3.52926067769677e-05	0.00557389849955716
0.47	0.00655129904381758	3.17886787689715e-05	0.00658308772258655
0.4725	0.0078110010549693	2.90031733495599e-05	0.00784000422831886
0.475	0.00920130802031842	2.5273949848653e-05	0.00922658197016707
0.4775	0.0106515887716374	2.24845272224038e-05	0.0106740732988598
0.48	0.0121316817027883	2.24906597179912e-05	0.0121541723625063
0.4825	0.0136370099948568	2.16172666751623e-05	0.013658627261532
0.485	0.0151707398345377	1.85401955638819e-05	0.0151892800301016
0.4875	0.0167304231821889	1.76083753617705e-05	0.0167480315575506
0.49	0.0183035896768062	1.67829448101088e-05	0.0183203726216164
0.4925	0.019872649618797	1.66266331817359e-05	0.0198892762519788
0.495	0.0214250113868361	1.32676204165328e-05	0.0214382790072526
0.4975	0.0229625172890888	1.22895053071209e-05	0.0229748067943959
0.5	0.0245042172461512	1.0949942304813e-05	0.0245151671884561
0.5025	0.0260802944619412	1.06194454010842e-05	0.0260909139073422
0.505	0.0277183218580573	9.80261887788851e-06	0.0277281244769352
0.5075	0.0294267521461254	1.04289198477628e-05	0.0294371810659732
0.51	0.0311818562022803	8.70858093591556e-06	0.0311905647832162
0.5125	0.0329231315515952	9.1538672550563e-06	0.0329322854188503
0.515	0.0345593216928321	8.34309416203131e-06	0.0345676647869942
0.5175	0.0359833703321344	6.05895843246153e-06	0.0359894292905669
0.52	0.0370914131688875	5.77674405696217e-06	0.0370971899129444
0.5225	0.0378002871185908	5.79232666754433e-06	0.0378060794452584
0.525	0.0380584366740162	5.58061999691704e-06	0.0380640172940131
0.5275	0.0378481179473005	5.72409943754845e-06	0.0378538420467381
0.53	0.0371796607095685	4.95602917839863e-06	0.0371846167387469
0.5325	0.0360814619423865	4.66468537696657e-06	0.0360861266277634
0.535	0.034589655236322	4.31050748994233e-06	0.0345939657438119
0.5375	0.0327416115630184	3.62892876540347e-06	0.0327452404917838
0.54	0.0305747634491549	3.46346225942694e-06	0.0305782269114144
0.5425	0.0281300780435244	3.59199876190783e-06	0.0281336700422863
0.545	0.0254578577626394	2.59643606871179e-06	0.0254604541987082
0.5475	0.0226223879130801	2.48551768785286e-06	0.022624873430768
0.55	0.0197030363418004	2.32365057430191e-06	0.0197053599923747
0.5525	0.0167904761026456	3.15967135281924e-06	0.0167936357739984
0.555	0.0139790167870865	3.31833683643267e-06	0.0139823351239229
0.5575	0.0113569342767306	2.10369897985291e-06	0.0113590379757105
0.56	0.0089976089324679	2.17919106726722e-06	0.00899978812353516
0.5625	0.00695361230392879	2.05779138346584e-06	0.00695567009531225
0.565	0.00525492024880138	1.75645960945814e-06	0.00525667670841084
0.5675	0.00391068428533222	1.73490591118982e-06	0.00391241919124341
0.57	0.00291347771851737	1.55418236863387e-06	0.002915031900886
0.5725	0.00224402782817475	1.44808156909306e-06	0.00224547590974385
0.575	0.00187515665297944	5.69784983132885e-07	0.00187572643796257
0.5775	0.00177422699391063	2.17213867601576e-06	0.00177639913258664
0.58	0.00190413100970043	2.25362598987403e-06	0.0019063846356903
0.5825	0.00222400141033827	2.64098702372494e-06	0.002226642397362
0.585	0.00269028324542867	1.32984942851292e-06	0.00269161309485718
0.5875	0.00325893768610123	1.80575102314533e-06	0.00326074343712437
0.59	0.0038886087875236	3.94275970645626e-07	0.00388900306349425
0.5925	0.00454422027679391	-2.63020704277486e-07	0.00454395725608964
0.595	0.00519977506236854	1.09330949800371e-06	0.00520086837186655
0.5975	0.00583947733373238	1.30346170069233e-06	0.00584078079543308
0.6	0.00645688580124253	6.24600954998077e-07	0.00645751040219753
0.6025	0.00705202638165918	7.68378809803109e-07	0.00705279476046898
0.605	0.00762758875281657	5.41276437042181e-07	0.00762813002925361
0.6075	0.00818530782800494	4.08613761927452e-07	0.00818571644176687
0.61	0.00872353609176745	7.55208820959434e-07	0.00872429130058841
0.6125	0.00923676006613592	2.72060065562186e-07	0.00923703212620148
0.615	0.00971683457851532	-4.41845013546449e-07	0.00971639273350177
0.6175	0.0101553771846124	9.32365776639742e-07	0.010156309550389
0.62	0.0105462253854152	-4.22757832191469e-07	0.010545802627583
0.6225	0.0108869448366008	9.70944991163136e-07	0.010887915781592
0.625	0.0111787944186068	-7.31290649604015e-07	0.0111780631279572
0.6275	0.0114250668590705	-1.42661541661257e-07	0.0114249241975288
0.63	0.0116283784299143	2.24037801852917e-08	0.0116284008336945
0.6325	0.0117879174040817	2.18415402433816e-07	0.0117881358194841
0.635	0.0118975022887289	2.47547902936492e-07	0.0118977498366319
0.6375	0.0119452668976616	3.21926665190866e-07	0.0119455888243268
0.64	0.011915127053486	3.54126709133174e-07	0.0119154811801951
0.6425	0.011789792087949	5.85496658267811e-07	0.0117903775846073
0.645	0.011554315969393	4.81892991615511e-07	0.0115547978623846
0.6475	0.0111995371031809	1.56514800599822e-06	0.0112011022511869
0.65	0.0107242683607167	5.73738068210391e-07	0.0107248420987849
0.6525	0.0101360259662816	3.16917220221493e-07	0.0101363428835018
0.655	0.00945009832077054	-2.50446812489233e-07	0.00944984787395805
0.6575	0.00868739866553363	4.86397763530094e-07	0.00868788506329716
0.66	0.00787180419779564	2.82313308250766e-07	0.0078720865111039
0.6625	0.0070275826882034	3.08879055601163e-07	0.007027891567259
0.665	0.00617748405316802	1.40561745044311e-07	0.00617762461491306
0.6675	0.0053417545217784	5.44740358791705e-07	0.00534229926213719
0.67	0.0045379178025022	-3.60198162991541e-08	0.0045378817826859
0.6725	0.00378112895870211	1.10557314973933e-07	0.00378123951601708
0.675	0.00308465203621661	9.19299844754762e-08	0.00308474396620108
0.6775	0.00246012127043213	1.50684207542469e-07	0.00246027195463967
0.68	0.00191753647893277	-1.90700572931784e-08	0.00191751740887547
0.6825	0.00146483297416405	1.70050154792216e-07	0.00146500302431884
0.685	0.00110734934331533	2.07978296885243e-07	0.00110755732161221
0.6875	0.000847312139160392	6.14196055919963e-07	0.000847926335216312
0.69	0.000683649503532937	1.41225107251965e-06	0.000685061754605457
0.6925	0.000612139550034931	6.85744101828981e-07	0.00061282529413676
0.695	0.000625844148473206	3.02487493919496e-07	0.000626146635967126
0.6975	0.000715804236405105	1.34632542492094e-07	0.000715938868947597
0.7	0.000871699756753402	-5.27592991728362e-07	0.000871172163761673
0.7025	0.00108238720579592	2.13186508959699e-07	0.00108260039230488
0.705	0.00133627432589039	-1.36909999080258e-07	0.00133613741589131
0.7075	0.00162149347440002	5.582167940682e-08	0.00162154929607943
0.71	0.00192608863779432	1.00702926405254e-07	0.00192618934072073
0.7125	0.00223827675421463	8.11837612120111e-08	0.00223835793797584
0.715	0.00254689624153208	-4.27608182838135e-08	0.0025468534807138
0.7175	0.00284203722024955	6.09471449332129e-08	0.00284209816739449
0.72	0.00311579189966156	-1.97202618682695e-07	0.00311559469704288
0.7225	0.00336286614981108	3.32038093235756e-07	0.00336319818790432
0.725	0.00358092894310777	3.1236484997741e-09	0.00358093206675627
0.7275	0.0037704884636181	3.68132698855598e-07	0.00377085659631695
0.73	0.00393431208522712	3.18692285241332e-07	0.00393463077751236
0.7325	0.00407637257430245	5.37004780701479e-08	0.00407642627478052
0.735	0.00420062529395971	1.96374596233006e-07	0.00420082166855594
0.7375	0.00430983269550591	1.46789833363113e-07	0.00430997948533927
0.74	0.00440470016737882	2.22851408372961e-07	0.0044049230187872
0.7425	0.00448355347170471	3.25114767216861e-07	0.00448387858647192
0.745	0.00454259995233965	2.12713899738726e-07	0.00454281266623939
0.7475	0.00457672092142688	6.20480226935367e-08	0.00457678296944957
0.75	0.00458059247684911	6.14705127944369e-08	0.0045806539473619
0.7525	0.00454984458562872	-9.26891323239769e-09	0.00454983531671549
0.755	0.00448200401840272	1.91897417482553e-07	0.0044821959158202
0.7575	0.00437702311966987	-1.21456576407122e-07	0.00437690166309346
0.76	0.00423727879982107	5.72563121874768e-08	0.00423733605613325
0.7625	0.00406706835987746	-2.31283643677303e-07	0.00406683707623379
0.765	0.00387180372435631	3.20671176146446e-07	0.00387212439553245
0.7675	0.00365709004835324	-2.70990761830406e-07	0.00365681905759141
